timestep,px,py,theta,px_ref,py_ref,theta_ref,error_px,error_py,error_theta,error_norm
0,0.0,0.0,0.7853356621996614,0.0,0.0,0.7853356621996614,0.0,0.0,0.0,0.0
1,0.013332777787222137,0.013331111262216722,0.7852543927973967,0.01999966666833333,0.01999866669333308,0.7852481546488611,-0.006666888881111192,-0.006667555431116358,6.238148535619992e-06,0.009428878071891186
2,0.03477617634474022,0.03476834484547885,0.7850722149173062,0.03999733338666616,0.03998933418663416,0.7850230608876738,-0.005221157041925939,-0.005220989341155308,4.915402963234783e-05,0.007383876128128048
3,0.05590238370598878,0.05588078458341461,0.7847605932236453,0.05999100040499132,0.0599640064794446,0.7846476544182689,-0.00408861669900254,-0.004083221896029991,0.00011293880537643908,0.005779467340278085
4,0.07677643772915929,0.07672823821409461,0.784287357958388,0.07997866837326832,0.07991469396917268,0.7841215594114672,-0.0032022306441090304,-0.003186455755078074,0.00016579854692078122,0.00452053874392225
5,0.09744937342540953,0.09735529763226983,0.7836513168836423,0.09995833854135666,0.09983341664682815,0.7834442486492034,-0.002508965115947129,-0.0024781190145583276,0.00020706823443894518,0.0035325425768232134
6,0.11796075674978646,0.1177951453686692,0.7828533761284511,0.11992801295888919,0.11971220728891936,0.7826150424646705,-0.0019672562091027357,-0.0019170619202501654,0.00023833366378056553,0.002757177240152977
7,0.1383411407305624,0.1380720649376367,0.7818940239758303,0.13988569467506554,0.1395431146442365,0.7816331073758956,-0.0015445539445031464,-0.0014710497065997807,0.00026091659993465743,0.002148886129809812
8,0.158614027566807,0.15820336927529294,0.7807733797757496,0.1598293879383454,0.15931820661424598,0.7804974544099562,-0.001215360371538382,-0.0011148373389530397,0.00027592536579335025,0.001672153680891204
9,0.1787974024479475,0.17820091476909844,0.7794912317237047,0.17975709839602208,0.17902957342582415,0.7792069371144732,-0.0009596959480745737,-0.0008286586567257115,0.00028429460923151684,0.0012994286848285737
10,0.19890493286741667,0.19807228977916547,0.7780470659303582,0.1996668332936563,0.19866933079506124,0.7777602492524496,-0.0007619004262396367,-0.0005970410158957773,0.0002868166779086412,0.0010095613111111932
11,0.21894690660405422,0.21782174755532413,0.7764400886706543,0.21955660167434962,0.21822962308086932,0.7761559221759956,-0.0006096950702954018,-0.0004078755255451927,0.0002841664946586775,0.0007866645535219458
12,0.23893096548899853,0.23745093849573615,0.7746692432716299,0.23942441457783872,0.23770262642713458,0.774392321873985,-0.0004934490888401921,-0.00025168793139843104,0.00027692139764490253,0.0006192933703524069
13,0.2588626795555186,0.2569594849206734,0.7727332227604061,0.2592682852393897,0.2570805518921551,0.7724676456882399,-0.00040560568387110196,-0.0001210669714817314,0.0002655770721662343,0.0004997042761801142
14,0.2787459964025088,0.27634543227460573,0.7706304791310912,0.279086229288473,0.27635564856411376,0.7703799186924472,-0.00034023288596418677,-1.0216289508035992e-05,0.0002505604386440208,0.0004226621850560036
15,0.298583592981179,0.29560560338802183,0.7683592298866805,0.29887626494719843,0.29552020666133955,0.7681269897276758,-0.0002926719660194532,8.539672668228526e-05,0.00023224015900469297,0.000383255752828664
16,0.31837715106577613,0.31473587670667263,0.7659174623567685,0.31863641322849195,0.31456656061611776,0.7657065270881165,-0.00025926216271582314,0.00016931609055487185,0.00021093526865201273,0.0003746711826364129
17,0.3381275730247062,0.33373140489828085,0.7633029361735235,0.33836469813399206,0.33348709214081446,0.7631160138505118,-0.00023712510928586283,0.0002443127574663917,0.00018692232301176226,0.0003884031356139879
18,0.35783515088135065,0.3525867867135954,0.7605131841984891,0.35805914685164836,0.35227423327509,0.760352742840698,-0.0002239959702977079,0.00031255343850539186,0.00016044135779114121,0.00041665966437971937
19,0.37749969882067,0.3712962022039094,0.757545512124707,0.37771778995300115,0.3709204694129827,0.7574138112307743,-0.00021809113233112187,0.0003757327909267305,0.0001317008939326625,0.0004539647537438601
20,0.39712065708411487,0.3898535192185575,0.7543969969272407,0.39733866159012243,0.38941834230865047,0.754296114760662,-0.00021800450600756305,0.0004351769099070202,0.00010088216657866411,0.0004970735550091452
21,0.4166971734655406,0.4082523773957791,0.751064484296421,0.4169197996921991,0.40776045305957015,0.7509963415782595,-0.00022262622665852883,0.0004919243362089265,6.814271816157902e-05,0.0005442383847077088
22,0.4362281672687589,0.42648625451824596,0.7475445851590045,0.43645924616173865,0.4259394650659996,0.74751096569306,-0.00023107889297974138,0.0005467894522463435,3.3619465944489946e-05,0.0005945640658154441
23,0.45571237953034566,0.4445485190515155,0.7438336713706353,0.4559550470703768,0.44394810696551984,0.7438362400390204,-0.00024266754003116064,0.0006004120859956497,-2.5686683851056102e-06,0.0006476023517959883
24,0.4751484124848201,0.4624324718576039,0.7399278706468124,0.47540525285426916,0.46177917554148284,0.7399681891436981,-0.00025684036944906286,0.0006532963161210437,-4.03184968856829e-05,0.0007031277502895037
25,0.4945347606029207,0.48013137942797995,0.7358230607877165,0.4948079185090459,0.479425538604203,0.7359026014022606,-0.00027315790612519875,0.0007058408237769487,-7.954061454407135e-05,0.000761021168924277
26,0.5138698350280843,0.49763850047222546,0.7315148632438117,0.5141611037843102,0.49688013784373675,0.7316350209569904,-0.0002912687562259819,0.0007583626284887179,-0.0001201577131787479,0.000821212055852868
27,0.5331519828406576,0.5149471073002801,0.7269986360634304,0.5334628733776623,0.5141359916531132,0.7271607391854021,-0.0003108905370047266,0.00081111564716696,-0.00016210312197173504,0.0008836509159340848
28,0.5523795022698307,0.5320505031239438,0.7222694662601095,0.5527112971282275,0.5311861979208834,0.7224747858031536,-0.00033179485839684997,0.000864305203060356,-0.0002053195430441468,0.0009482971194998148
29,0.5715506547310205,0.5489420361585777,0.7173221616359349,0.5719044502096711,0.5480239367918736,0.7175719195916764,-0.0003537954786505537,0.0009180993667041726,-0.00024975795574155857,0.0010151141434894795
30,0.5906636743768011,0.5656151112141617,0.7121512420973968,0.5910404133226791,0.5646424733950353,0.7124466187649454,-0.00037673894587797463,0.0009726378191264873,-0.00029537666754864134,0.0010840682341386621
31,0.6097167757010089,0.5820631993145828,0.7067509305021197,0.610117272886887,0.5810351605373051,0.7070930709952025,-0.00040049718587809036,0.001028038777277751,-0.0003421404930827876,0.0011551284952289664
32,0.6287081596193966,0.598279845766286,0.7011151430782954,0.6291331212322355,0.597195441362392,0.7015051631238559,-0.0004249616128388922,0.0010844044038940126,-0.00039002004556054626,0.001228267446247116
33,0.6476360183591644,0.6142586770051627,0.6952374794637278,0.6480860567897367,0.6131168519734339,0.6956764705913822,-0.0004500384305723415,0.0011418250317287715,-0.00043899112765433124,0.0013034616228465063
34,0.6664985394183768,0.6299934064782682,0.6891112124181789,0.6669741842816288,0.6287930240184685,0.6896002466289969,-0.0004756448632520227,0.0012003824597996982,-0.000489034210818029,0.0013806920529514256
35,0.6852939088004015,0.6454778397603129,0.6827292772713034,0.6857956149109028,0.6442176872376911,0.6832694112653708,-0.0005017061105012655,0.0012601525226217936,-0.0005401339940673822,0.001459944565088538
36,0.7040203136847242,0.6607058790604674,0.6760842611790426,0.7045484665501799,0.6593846719714731,0.6766765402139405,-0.000528152865455711,0.0013212070889943028,-0.0005922790348978912,0.0015412099391314135
37,0.7226759446611696,0.6756715272401937,0.6691683922741073,0.723230863929924,0.6742879116281452,0.6698138537206578,-0.0005549192687543947,0.0013836156120485832,-0.0006454614465505326,0.0016244839290441115
38,0.7412589976276525,0.690368891435479,0.66197352881136,0.7418409388259654,0.6889214451105513,0.6626732054686119,-0.0005819411983128964,0.0014474463249276592,-0.000699676657251902,0.0017097671907437084
39,0.7597676754304606,0.7047921863553578,0.6544911484267733,0.7603768302463229,0.7032794192004101,0.6552460716551185,-0.0006091548158622118,0.0015127671549476363,-0.00075492322834525,0.0017970651450272205
40,0.7782001893094925,0.7189357373116951,0.6467123376494945,0.778836684617301,0.7173560908995228,0.6475235403789927,-0.0006364953078085156,0.001579646412172342,-0.0008112027294981949,0.0018863878001875783
41,0.7965547601978239,0.7327939830218404,0.6386277818307309,0.7972186559688459,0.731145829726896,0.6394963015010727,-0.0006638957710219939,0.0016481532949443878,-0.0008685196703418496,0.0019777495534540374
42,0.8148296199146933,0.7463614782151795,0.6302277556810303,0.8155209061191403,0.7446431199708592,0.6311546371700733,-0.000691286204447028,0.0017183582443203171,-0.0009268814890429633,0.0020711689856245147
43,0.8330230122828522,0.7596328960661797,0.621502114639463,0.8337416048584215,0.757842562895277,0.6224884132389081,-0.0007185925755692768,0.0017903331709027137,-0.0009862985994451012,0.0021666686594320832
44,0.8511331941947426,0.7726030304697576,0.6124402873346068,0.8518789301319992,0.7707388788989693,0.6134870718341375,-0.0007457359372565753,0.0018641515707883416,-0.001046784499530773,0.0022642749292977817
45,0.8691584366467444,0.7852667981693298,0.6030312694385124,0.8699310682224605,0.7833269096274834,0.6041396253835459,-0.000772631575716054,0.0019398885418463463,-0.0011083559450335567,0.002364017768010944
46,0.8870970257564881,0.7976192407434243,0.5932636192613602,0.8878962139310396,0.795601620036366,0.5944346524544845,-0.0007991881745514906,0.002017620707058243,-0.0011710331931242823,0.0024659306144520776
47,0.9049472637746819,0.8096555264530214,0.5831254554866904,0.9057725707581367,0.8075581004051143,0.5843602958088202,-0.0008253069834547322,0.0020974260479070805,-0.0012348403221298376,0.0025700502455275045
48,0.9227074700998761,0.8213709519486598,0.5726044575052093,0.9235583510829657,0.8191915683009982,0.5739042631394864,-0.000850880983089608,0.0021793836476616812,-0.001299805634277118,0.002676416674955007
49,0.940375982301895,0.8327609438336768,0.5616878688694652,0.941251776342316,0.8304973704919704,0.5630538310188344,-0.0008757940404210407,0.0022635733417064596,-0.0013659621493692375,0.002785073081272839
50,0.9579511571571833,0.8438210600776272,0.5503625044622352,0.958851077208406,0.8414709848078965,0.5517958526603765,-0.0008999200512227468,0.0023500752697307448,-0.0014333481981412266,0.0028960657674002304
51,0.9754313716969044,0.8545469912718936,0.5386147620481694,0.976354493765815,0.852108021949363,0.5401167701728806,-0.0009231220689105424,0.0024389693225306264,-0.0015020081247112405,0.003009444154167636
52,0.9928150242661977,0.8649345617177062,0.526430638960746,0.9937602756874735,0.8624042272433384,0.5280026320686902,-0.0009452514212757723,0.0025303344743677902,-0.0015719931079442029,0.0031252608103999996
53,1.0101005355904502,0.8749797303352189,0.513795754764175,1.0110666824096939,0.8723554823449863,0.5154391168758242,-0.000966146819243674,0.002624247990232642,-0.0016433621116491715,0.0032435715223467407
54,1.027286349841686,0.8846785913809408,0.500695380821408,1.0282719833062262,0.8819578068849474,0.5024115637945514,-0.0009856334645401699,0.0027207844959934446,-0.0017161829731434652,0.0033644354054383784
55,1.0443709356951445,0.8940273749597256,0.48711447779312217,1.0453744578613184,0.8912073600614354,0.4889050114318624,-0.0010035221661739424,0.002820014898290202,-0.0017905336387402104,0.003487915061471738
56,1.0613527873627424,0.9030224473167228,0.473037742185995,1.0623723958417668,0.900100442176505,0.47490424573891254,-0.001019608479024381,0.002922005140217787,-0.0018665035529175644,0.0036140767843270117
57,1.0782304255863413,0.9116603108942641,0.45844966315844154,1.0792640974679386,0.9086334961158833,0.46039385836355007,-0.001033671881597309,0.0030268147783808486,-0.0019441952051085232,0.0037429908171135815
58,1.095002398569521,0.9199376041386985,0.4433345908738718,1.0960478735837471,0.916803108771767,0.44535831670784964,-0.0010454750142261382,0.0031344953669315556,-0.002023725833977863,0.003874731663198876
59,1.111667282821874,0.9278511010428132,0.42767681775981253,1.1127220458255676,0.9246060124080204,0.4297820470431599,-0.0010547630036934486,0.003245088634792781,-0.0021052292833473873,0.004009378452713719
60,1.128223683884688,0.9353977104108508,0.4114606740788807,1.1292849467900707,0.9320390859672264,0.4136495320752246,-0.001061262905382776,0.0033586244436244472,-0.0021888579963438848,0.004147015364790885
61,1.1446702369012935,0.9425744748354151,0.39467063923597373,1.1457349202009626,0.9390993563190677,0.39694542436046354,-0.0010646832996690225,0.0034751185163474085,-0.0022747851244898087,0.004287732103788067
62,1.16100560698942,0.9493785693789646,0.3772914702248282,1.1620703210746102,0.945783999449539,0.37965467694079774,-0.0010647140851902659,0.0035945699294256395,-0.002363206715969568,0.004431624424873713
63,1.177228489366721,0.9558072999573409,0.35930834854422805,1.178289515884539,0.9520903415905158,0.36176269247614223,-0.0010610265178179201,0.0037169583668251738,-0.0024543439319141824,0.004578794700393156
64,1.1933376091744523,0.9618581014291043,0.3407070467758824,1.1943908827247842,0.958015860289225,0.34325549199681543,-0.0010532735503319124,0.003842241139879299,-0.0025484452209330044,0.004729352513072591
65,1.2093317209383212,0.9675285354025845,0.32147411579717844,1.210372811472079,0.963558185417193,0.32411990415739245,-0.0010410905337578935,0.003970349985391586,-0.0026457883602140075,0.00488341525502626
66,1.225209607600234,0.9728162877827259,0.30159709328655543,1.2262337039468676,0.9687151001182652,0.30434377553294595,-0.001024096346633696,0.004101187664460659,-0.0027466822463905194,0.00504110870235404
67,1.2409700790504647,0.9777191660921762,0.2810647337508718,1.2419719740731194,0.9734845416953194,0.283916202042244,-0.0010018950226546863,0.004234624396856845,-0.0028514682913721723,0.00520256752340384
68,1.256611970087299,0.9822350966157434,0.25986725974752994,1.2575860480369372,0.9778646024353163,0.2628277809958861,-0.000974077949638108,0.00437049418042712,-0.0029605212483561627,0.005367935664208992
69,1.272134137731181,0.9863621214343004,0.23799663327650913,1.273074364443936,0.9818535303723597,0.24107088253894532,-0.0009402267127549546,0.004508591061940681,-0.003074249262436185,0.005537366536791547
70,1.287535457823629,0.9900983954332759,0.215446845470546,1.2884353744753823,0.9854497299884603,0.2186399383813267,-0.000899916651753152,0.0046486654448156806,-0.0031930929107807093,0.0057110229149254866
71,1.302814820848599,0.9934421833916146,0.19221422171419741,1.3036675420430732,0.9886517628517197,0.1955317446860359,-0.0008527211944742152,0.0047904205398948685,-0.003317522971838488,0.005889076417676056
72,1.3179711269264958,0.9963918572788502,0.16829773818287208,1.3187693439429462,0.9914583481916864,0.171745774827978,-0.0007982170164504421,0.004933509087163723,-0.0034480366451059286,0.006071706434312468
73,1.3330032799495621,0.9989458939097068,0.1436993445323096,1.3337392700073958,0.9938683634116449,0.1472844964692778,-0.0007359900578336465,0.005077530498061922,-0.003585151936968206,0.00625909831646107
74,1.3479101808526555,1.0011028731260425,0.11842428612427092,1.34857582325629,0.99588084453764,0.12215368606333432,-0.0006656424036346476,0.005222028588402483,-0.0037293999390634047,0.006451440637027939
75,1.362690720045955,1.0028614766932458,0.09248141780026232,1.3632775200466682,0.9974949866040543,0.09636273255922409,-0.0005868000007132057,0.0053664900891914336,-0.0038813147589617653,0.006648921294192113
76,1.3773437690759711,1.0042204881102808,0.0658834998862635,1.3778428902211026,0.998710143975583,0.06992492081022447,-0.0004991211451315092,0.005510344134697753,-0.004041420923960967,0.006851722227655236
77,1.39186817162785,1.0051787935370926,0.038647465921116404,1.3922704772547134,0.9995258306054791,0.04285768409321477,-0.0004023056268633862,0.005652962931613548,-0.004210218172098365,0.007060012519838055
78,1.4062627340341078,1.0057353840375316,0.010794650659517527,1.4065588384008205,0.9999417202299663,0.015182814332306817,-0.0002961043667126795,0.005793663807565297,-0.00438816367278929,0.007273939684260925
79,1.420526215510456,1.0058893593179337,-0.01764903367131721,1.4207065448352156,0.99995764649874,-0.013073381788394796,-0.00018032932475953167,0.005931712819193691,-0.004575651882922416,0.00749361900475641
80,1.4346573183952136,1.0056399331089805,-0.0466529849604104,1.4347121817990456,0.9995736030415051,-0.0418799925214262,-5.486340383198396e-05,0.006066330067475367,-0.0047729924389842,0.007719120889274637
81,1.448654678720958,1.0049864402901514,-0.07618187421597072,1.4485743487402851,0.998789743470524,-0.07120148751278056,8.032998067286634e-05,0.006196696819627423,-0.004980386703190162,0.007950456344983531
82,1.4625168574908072,1.0039283457917485,-0.10619569432098355,1.4622916594537918,0.9976063813191736,-0.10099779051331807,0.00022519803701537278,0.006321964472574937,-0.00519790380766548,0.00818756086646802
83,1.476242333061853,1.002465255230345,-0.13664990289685278,1.4758627422199255,0.9960239899165367,-0.13122444564051788,0.0003795908419275129,0.0064412653138082865,-0.005425457256334892,0.008430277248730432
84,1.4898294950496493,1.0005969271424606,-0.16749566489552184,1.4892862399417186,0.994043202198076,-0.16183288156991452,0.0005432551079307402,0.006553724944384665,-0.0056627833256073234,0.008678338075445031
85,1.5032766401557147,0.9983232865829957,-0.19868019711975457,1.5025608102805854,0.9916648104524687,-0.19277077449320934,0.0007158298751293035,0.006658476130527058,-0.00590942262654523,0.008931348866215615
86,1.5165819702815249,0.99564443975579,-0.23014721290239784,1.515685125790554,0.9888897660047016,-0.22398250667469152,0.0008968444909709383,0.0067546737510884025,-0.006164706227706318,0.009188773062740675
87,1.5297435932260908,0.9925606892512568,-0.2618374608659305,1.5286578740510102,0.9857191788355535,-0.25540971319732503,0.0010857191750806017,0.006841510415703356,-0.006427747668605488,0.009449920157682735
88,1.5427595261711249,0.9890725493886395,-0.2936893472996311,1.5414777577979386,0.9821543171376185,-0.28699190529311164,0.0012817683731862761,0.006918232251021061,-0.0066974420065194495,0.0097139382884729
89,1.5556277020418978,0.9851807611061211,-0.32563962753774456,1.5541434950536477,0.9781966068080447,-0.31866715480424207,0.0014842069882501363,0.006984154298076417,-0.006972472733502488,0.009979812506392367
90,1.5683459786998155,0.9808863058176512,-0.35762414811257043,1.5666538192549668,0.9738476308781951,-0.35037282112276996,0.0016921594448486843,0.007038674939456091,-0.007251326989800466,0.010246369679214513
91,1.580912150783449,0.9761904176656531,-0.38957861868285226,1.579007479379901,0.9691091288804564,-0.38204629967072634,0.0019046714035479972,0.007081288785196649,-0.007532319012125921,0.010512290602684028
92,1.5933239638786234,0.971094593645512,-0.4214393910354905,1.591203240072732,0.9639829961524481,-0.41362576980480886,0.0021207238058913447,0.0071115974930638925,-0.007813621230681633,0.010776129411842902
93,1.6055791305760767,0.9656006011593099,-0.45314422197815535,1.6032398817675544,0.9584712830789142,-0.44505092006243957,0.0023392488085223206,0.007129318080395741,-0.008093301915715778,0.011036339845191404
94,1.6176753478771144,0.9597104826676053,-0.484632997729056,1.6151162008102287,0.9525761942715953,-0.47626362990645194,0.0025591470668857585,0.007134288396009936,-0.008369367822604057,0.01129130738123058
95,1.6296103153416412,0.9534265572411481,-0.5158483994052857,1.6268310095787475,0.9463000876874145,-0.5072085894658251,0.002779305762893758,0.007126469553733639,-0.008639809939460563,0.011539385798817392
96,1.6413817533439896,0.9467514189591133,-0.5467364922475859,1.6383831366019965,0.9396454736853249,-0.5378338420104227,0.0029986167419930876,0.007105945273788383,-0.00890265023716319,0.011778936363046473
